record_id	ref_annotations	test_annotations	matched_ref_inds	matched_test_inds	unmatched_ref_inds	unmatched_test_inds	true_positives	false_positives	false_negatives	specificity	positive_predictivity	fpr
16265	[       1       52      129 ... 10247715 10247823 10247936]	[      58      135      213 ... 10247720 10247829 10247941]	[     1      2      3 ... 100952 100953 100954]	[     0      1      2 ... 100243 100244 100245]	"[     0    479    488    509    519    840    842    844    846    848
    850    852    855    857    859    861    863    865    867    869
    871    873    875    877    879    881    883    886    888    890
    892    894    896    898    900    902    904    906    908    910
    912    915    917    918    923    925    927    930    931    933
    935    937    940    942    944    945    947    949    951    953
    955    957    959    961    963    965    982   1017   1025   1257
   1265   1363   1370   1395   1402   3638   4379   4387   4828   4911
   4919   5183   5191   5420   5429   5560   5568   5768   5769   5774
   5778   5780   5784   5791   5793   5794   5796   5798   5808   5933
   5960   5968   5971   5999   6019   6130   6138   6155   6157   6164
   6175   6198   6222   6695   6700   6704   7204   7211   7377   7386
   7426   7440   7841   7849   8445   8451   8943   8950   8961   8970
   8986   8994   8996   9008   9011   9031   9076   9081   9083   9088
   9105   9137   9146   9151   9379   9388   9603   9609   9659   9667
   9950   9958  10318  10339  10358  10378  10392  10420  10438  10446
  11139  11146  11538  11546  11749  11759  11791  11793  11797  11812
  12121  12128  12224  12233  12260  12277  12379  12389  12431  12447
  12460  12471  12704  12711  13017  13030  13944  13952  14028  14032
  14040  14042  14049  14055  14057  14059  14060  14062  14064  14066
  14068  14245  14254  14272  14293  14538  14549  14828  14837  14864
  14875  15027  15034  15464  15466  15474  15485  15491  15493  15495
  15496  15498  15500  15502  15504  15506  15508  15518  15536  15562
  16168  16176  16278  16287  16372  16379  16384  16398  16410  16413
  16415  16417  16457  16459  16461  16463  16465  16467  16469  16471
  16473  16475  16477  16479  16481  16483  16485  16487  16489  16491
  16493  16495  16497  16499  16501  16503  16505  16507  16509  16511
  16513  16515  16517  16519  16521  16523  16525  16527  16529  16531
  16532  16534  16536  16538  16541  17419  17431  17533  17542  17872
  17894  17903  18328  18335  18561  18569  18717  18724  18766  18775
  18785  18787  18789  18791  18793  18795  18797  18799  18801  18803
  18818  18827  19003  19008  19011  19015  19021  19023  19032  19052
  19075  19084  19290  19298  19670  19677  19856  19864  20155  20162
  20376  20382  20387  20392  20396  20442  20467  20482  20685  21001
  21009  21180  21192  21250  21270  21443  21452  21624  21633  21647
  21649  21650  21652  21655  21657  21660  21680  21689  21745  21755
  21771  21789  21864  21872  21939  21948  22186  22200  22242  22252
  22295  22305  22536  22548  22560  22566  22579  22602  22611  23774
  24073  24092  24196  24199  24207  24208  24230  24237  24238  24252
  24272  24280  24296  24307  24317  24322  24324  24333  24343  24353
  24364  24365  24367  24375  24381  24384  24388  24389  24397  24399
  24404  24406  24416  24419  24421  24423  24425  24427  24429  24431
  24432  24434  24436  24438  24440  24442  24444  24446  24447  24449
  24451  24453  24455  24457  24459  24461  24463  24465  24467  24469
  24471  24473  24475  24477  24479  24481  24483  24485  24487  24489
  24491  24492  24494  24496  24500  24502  24519  24541  24569  24578
  26159  26168  26989  26991  26993  26995  26997  27000  27013  27188
  27197  27446  27455  27467  27476  27503  27512  28442  28457  29461
  29468  30124  30133  30487  30496  31075  31083  31488  31498  31939
  31948  32217  32228  32605  33229  33238  33248  33264  34604  34613
  34943  34961  34989  34996  35393  35396  35401  36578  36585  36650
  36657  36763  36778  36799  36807  36817  36827  36871  36874  36957
  36967  36979  37015  37043  37058  37097  37099  37101  37103  37104
  37109  37155  37164  37188  37197  38119  38466  38471  38473  38475
  38477  38480  38482  38484  38486  38817  38818  38825  38835  38991
  38999  39806  39814  40000  40008  40036  40041  40049  40060  40062
  40070  40300  40723  40730  41145  41153  42153  42157  42165  42572
  43917  43925  45247  45254  47089  47674  47681  48114  48123  48405
  48407  48409  48412  48983  48990  49344  49351  50050  51105  51129
  52247  52251  52258  52261  52384  52391  52660  52669  53567  53569
  53576  53649  53651  53653  53655  53657  53659  53661  53663  53665
  53667  53669  53671  53673  53675  53677  53679  53681  53683  53685
  53934  54099  54117  56103  56112  59629  59637  60470  60483  62836
  62839  62847  63505  63512  64665  64674  65068  65078  65372  65389
  65494  65501  66190  66197  66199  66786  66794  67979  67991  68006
  68012  68130  70237  70243  71024  71031  73279  73286  73287  73390
  73392  73399  73401  73470  73476  73621  73629  73936  73949  74196
  74203  75305  75313  76701  76708  76803  76810  76834  76847  77549
  77556  78699  78711  79285  79292  82686  82694  85569  85576  88351
  88358  91184  92120  92122  92124  92131  92212  92214  92220  92223
  92321  92328  96670  96676  96683  96691  97838  98100  98113  98149
  98151  98154  98159  98176  98183  98497 100675 100682 100732 100739
 100861 100865 100869 100879]"	"[ 3563  4751  9010 17586 20111 20352 23401 26552 32120 37593 39749 46526
 67491 90506 97146]"	100231.0	15.0	724.0	0.9928284879401713	0.9998503680944876	0.0001496319055124394
16272	[       1       73      199 ... 10802593 10802693 10802777]	[      79      205      328 ...  3186287  9986930 10548605]										
16273	[      9      87     164 ... 9516519 9516612 9516699]	[     15      93     171 ... 9516525 9516618 9516709]	[    0     1     2 ... 90094 90095 90096]	[    0     1     2 ... 89778 89779 89780]	"[   54   242   247   249   252   411   416   423   508   518  1265  1270
  1275  1277  1283  1286  1298  1302  1306  3514  3522  4105  4113  5128
  5141  5248  5256  5266  5267  5268  5272  6496  6505  6964  6966  6976
  7018  7024  7034  7144  7148  7154  7290  8739 12567 12568 12577 12790
 13482 13736 13737 14048 14058 14517 14519 14521 14523 14525 14527 14530
 14949 14959 14993 14997 15001 15008 15013 15017 15529 15533 15538 16597
 16605 17612 17623 17626 17630 17641 17651 17819 17826 17836 17842 17844
 17898 17904 18715 18717 18724 19288 19293 19297 19300 19320 19322 19324
 19335 19336 19348 19375 19383 19409 19416 19423 20553 20555 20558 20560
 20565 20595 20702 20712 20732 20755 20769 20770 20772 20774 20776 20778
 20780 20781 20783 20785 20787 20789 20791 20793 20795 20797 20799 20801
 20803 20805 20807 20809 20811 20813 20815 20817 20819 20821 20823 20825
 20827 20829 20831 20833 20835 20837 20839 20841 20843 20845 20847 20849
 20851 20853 20855 20857 20859 20864 20875 21035 21037 21039 21044 21047
 22597 22603 24397 24404 24721 24732 24781 24791 24799 25096 25104 28710
 28711 28714 28717 28719 28723 30334 30348 30398 30409 30447 30455 30480
 30487 30511 30519 30633 30642 31438 31442 31446 32506 32515 32525 32529
 32534 32535 32689 32698 32863 32872 34739 34741 34745 34751 36397 36398
 36404 36423 36428 36432 37167 37186 39290 39298 45071 45073 45076 45081
 45083 45118 45127 45262 45269 45292 45299 47224 47231 47653 47660 48053
 48059 48960 48968 50189 50196 51820 51827 52124 52125 52133 52290 52296
 53552 53560 56941 56943 56951 56952 56987 57631 57640 57648 57656 57793
 57802 57812 57888 57890 57897 57981 57992 59323 59324 59327 59329 59333
 59335 59360 59368 62219 62221 71003 74582 74594 74595 74599 74605 74607
 78669 78670 78948 78953 78957 78963 82268 82275 83487 85246 85254 85388
 85745 85747 85748 85751 85753 85756 85759 87276 87279 87281 87283 87285
 87287 87291 87292 89004 89012]"	[5239]	89780.0	1.0	317.0	0.9964815698635915	0.9999888617859013	1.1138214098751407e-05
16420	[     68     148     228 ... 9953381 9953468 9953510]	[     75     156     235 ... 9953299 9953388 9953476]	[     0      1      2 ... 102432 102433 102434]	[     0      1      2 ... 101844 101845 101846]	"[   307    318    320    334    387    396   2786   2794   2966   3031
   3040   3384   3392   4396   4400   4405   4549   6063   6072   6523
   6532   6549   6551   6555   6557   6562   6563   6690   6730   6736
   6740   6741   6748   6750   6792   6801   6839   7338   7343   7348
   7525   7532   7667   7674   7895   8258   8266  10859  10866  18368
  18376  19559  19567  20203  20533  20541  20550  20551  20560  20562
  20570  20578  20906  20916  20919  20928  21097  21099  21103  21107
  21274  21283  21418  21526  21529  21531  21533  21535  21537  21539
  21541  21543  21545  21547  21549  21551  21553  21555  21557  21559
  21561  21563  21565  21567  21569  21571  21573  21575  21577  21579
  21581  21583  21585  21587  21589  21591  21593  21595  21597  21599
  21601  21603  21605  21607  21609  21611  21613  21615  21617  21619
  21621  21622  21624  21625  21627  21629  21630  21632  21634  21635
  21637  21638  21640  21642  21644  21646  21648  21650  21684  21714
  21716  21726  21727  22195  22198  22201  22204  22207  22210  22212
  22214  22216  22219  22236  22239  22242  22244  22247  22250  22252
  22254  22256  22258  22260  22262  22264  22266  22268  22270  22272
  22274  22276  22278  22280  22283  22286  22289  22292  22306  22309
  22313  22315  22318  22320  22322  22324  22326  22328  22330  22332
  22334  22335  22337  22339  22341  22343  22344  22346  22348  22350
  22352  22354  22356  22358  22365  22367  22369  22371  22374  22376
  22378  22380  22382  22384  22386  22388  22390  22392  22394  22396
  22398  22400  22402  22404  22406  22408  22410  22412  22414  22416
  22418  22420  22422  22424  22426  22428  22430  22432  22434  22436
  22438  22440  22442  22444  22446  22448  22450  22452  22454  22456
  22458  22460  22462  22463  22465  22467  22469  22471  22473  22474
  22476  22478  22480  22482  22484  22486  22488  22490  22492  22494
  22496  22498  22500  22502  22504  22506  22507  22509  22511  22513
  22515  22517  22519  22521  22523  22525  22527  22528  22530  22532
  22534  22536  22538  22540  22542  22543  22545  22547  22549  22551
  22553  22555  22559  22562  22565  22567  22571  22600  22604  22656
  22666  22669  22672  22676  22963  22972  23323  23780  23781  23790
  23792  23812  23824  23904  24004  24674  24682  24887  24895  25449
  25460  26220  26228  26271  26278  28725  28732  28825  28839  28848
  28851  28855  28859  28861  29007  29014  29040  29051  31207  31216
  31221  31302  31311  31343  31345  31348  31353  31523  31531  31823
  31824  31834  31836  31870  31883  31919  31925  31935  31936  33672
  33676  33813  33820  34030  34038  34786  34793  34802  34809  34966
  36598  36600  36607  36610  39962  39970  39980  39988  40001  40010
  40013  40083  40090  40142  40150  40193  40201  40237  40252  40256
  40261  40294  40298  40303  40310  40316  40317  40331  40333  40376
  40384  40465  40470  40475  40476  40654  40662  41070  43088  43091
  43094  43096  43098  43102  47245  47247  47254  47606  47611  47615
  47617  47670  47678  47681  47735  47743  47762  47772  47922  47923
  47931  48085  48094  48096  48605  48618  48642  48650  48684  48717
  48721  48726  48733  48840  48842  48855  48856  48862  48865  48868
  48870  48875  48887  49024  49032  49034  49043  49052  49076  49080
  49089  49094  49103  49160  49177  49346  49356  49522  49529  49675
  49711  49720  50681  50688  51738  51742  51748  51842  51851  51887
  51895  51905  51914  52452  52454  52457  52462  52464  52489  52498
  53144  53146  53153  53156  53204  53212  55008  55015  58063  58070
  58172  58179  59676  59684  62612  62619  62620  66496  66503  66534
  66541  66556  66562  67803  67809  70722  70729  70745  70748  70755
  70764  70767  70768  70772  70774  70776  70778  70781  70787  72740
  72752  72832  73059  73067  73083  73090  73398  74173  74179  78625
  78632  78648  78656  78658  78672  83037  83044  83375  83382  90234
  90241  90555  90564  90627  90634  91198  91205  91210  91217  95828
  95837  95856  95857  95864  95902  95911  95922  95935  95955  95963
  95965  96217  96224  96228  96237 102395 102404 102421 102435]"	[]	101847.0	0.0	589.0	0.9942500683353509	1.0	0.0
16483	[     18      99     178 ... 9740551 9740634 9740719]	[     19     102     182 ... 9740557 9740641 9740726]	[     0      1      2 ... 104558 104559 104560]	[     0      1      2 ... 104320 104321 104322]	"[    60     91    103    154    421    429   1276   1433   1440   1974
   1985   2026   2041   2044   2053   3192   3201   3858   3862   3867
   3868   3869   4010   4014   4016   4018   4020   4025   4028   4258
   4407   4416   4420   4429   4943   4951   5126   5138   5696   5705
   6050   6058   6765   6773   6865   6869   6873   6875   7078   7096
   8953   8961  11174  13183  13190  16272  16280  17108  17116  17262
  18234  18243  20064  20072  20094  20151  20155  20157  20159  20161
  20178  20180  20182  20184  20186  20188  20216  20218  20877  20885
  22211  22219  23468  24380  25108  25142  25150  25235  25255  25264
  25330  25338  25782  31806  31903  31911  32429  32441  32524  32533
  32635  32643  32951  33148  33154  33546  33554  38167  39035  39877
  39879  40449  40456  40838  40846  41392  41396  41401  42261  42712
  42898  42951  42959  43235  43566  44018  44025  44732  44739  46411
  46419  46451  46459  46744  46767  46774  47267  49136  49143  49458
  49979  50333  50986  51379  51588  51591  51594  51708  51858  51861
  51951  52111  52117  54311  54313  54315  54318  54320  54325  54383
  54384  54388  54389  54390  54392  54394  54398  54399  54572  54603
  54610  56534  57477  57684  57762  57769  57830  58006  58219  58229
  58367  58382  58643  60535  61340  61347  62548  64434  67598  68236
  68281  68293  68296  68298  68301  68303  68523  68535  68542  69394
  69395  70405  70412  70413  75580  75582  75680  75686  76928  76935
  78794  78796  79251  84830  85602  91819  92776  92778  92779  92782
  92786  92788  92791  93223  94057  97544  97988  98038  98122  98126
  98133  99977  99986 102360 102362 104393 104404 104411 104420]"	[51446]	104322.0	1.0	239.0	0.9977142529241304	0.9999904143860894	9.585613910642907e-06
16539	[      72      168      268 ... 10837587 10837734 10837764]	[      76      172      273 ... 10837483 10837591 10837739]	[     0      1      2 ... 108670 108671 108672]	[     0      1      2 ... 107896 107897 107898]	"[   272    279    551    565    568    575    816    823    828    836
   1201   1205   1210   1211   1263   1270   1538   1544   1822   1962
   1969   2024   2032   2831   2842   2843   2860   2869   2976   2984
   3415   3422   4404   4410   4417   6315   6323  10245  10251  10449
  10456  10462  10470  11462  11469  12522  12531  12583  12593  12598
  13238  13779  14078  14924  14932  15064  15072  15287  15296  15857
  15860  15980  15988  16308  16312  16316  16317  17447  17448  17452
  17457  18296  18303  18380  18388  18785  18792  18972  18980  19978
  19987  20304  20312  20753  20756  20760  20764  20766  20788  20790
  20792  20794  20796  20798  20800  20802  20805  20838  20840  20842
  20844  20846  20848  20850  20852  20854  20856  20858  20860  20862
  20864  20866  20868  20870  20872  20874  20876  20878  20880  20882
  20884  20886  20888  20890  20892  20894  20896  20898  20900  20902
  20904  20906  20908  20916  20918  20920  20922  20925  20932  20934
  20936  21392  21395  21428  21436  21439  21442  21445  21455  21671
  21679  21723  21727  21729  21745  21768  21777  22275  22284  22417
  22651  22661  22688  22690  22692  22694  22696  22698  22700  22702
  22704  22706  22708  22710  22712  22714  22716  22718  22720  22722
  22724  22726  22728  22730  22732  22734  22736  22738  22740  22742
  22744  22746  22748  22750  22753  22755  22757  22759  22764  22771
  22773  22775  22882  22891  22974  22982  24409  24417  24489  24495
  24502  24504  24604  24612  27391  27400  30127  30136  30289  30293
  30298  30743  30751  30770  30774  30776  30802  30804  30806  30808
  30810  30812  30814  30816  30818  30820  30822  30824  30826  30828
  30830  30832  30834  30836  30838  30840  30842  30844  30846  30848
  30850  30852  30854  30856  30858  30860  30862  30864  30865  30866
  30868  30870  30871  30873  30875  30877  30878  30879  30881  30883
  30885  30887  30889  30891  30893  30895  30897  30899  30901  30903
  30905  30907  30909  30911  30913  30915  30917  30919  30921  30923
  30925  30927  30929  30931  30933  30935  30937  30939  30941  30943
  30945  30947  30949  30951  30953  30955  30957  30958  30960  30962
  30965  30967  30969  30978  30980  31586  31594  31793  31804  31811
  31813  31817  31819  31821  31826  32111  32118  32623  32627  32634
  32635  32640  32678  32694  32746  32752  32756  32814  32822  32940
  32942  32944  32946  32948  32950  32953  32957  32966  32968  32970
  32972  32986  33341  33344  33346  33355  33356  33602  33616  33618
  33620  33622  33624  33626  33628  33630  33632  33634  33636  33638
  33640  33642  33644  33646  33648  33650  33652  33654  33656  33658
  33660  33662  33664  33666  33668  33670  33672  33674  33676  33678
  33680  33682  33684  33686  33688  33690  33692  33694  33696  33698
  33700  33702  33704  33706  33708  33713  33719  33726  33729  33738
  33740  34325  34326  34330  34332  34336  34337  34362  34369  35191
  35192  35200  36038  36040  36043  36070  36500  36511  36749  36757
  36930  36977  37144  37463  37464  37470  37474  37476  37478  37480
  37578  37586  37640  37642  37650  37651  38330  38423  38432  38890
  38898  39006  39014  39446  39449  39498  39502  39541  39549  39668
  39675  39686  39695  39732  39734  39736  39738  39740  39742  39745
  39747  39749  39751  39753  39755  39757  39901  39908  39940  39945
  39952  39953  40402  40405  40407  40421  40425  40577  40584  40601
  40607  41882  42879  42881  42887  42889  42904  42912  42934  42942
  43195  43199  43203  43882  43892  43899  43981  43988  44081  44089
  44257  44260  44262  44264  44266  44268  44270  44272  44274  44276
  44278  44280  44282  44284  44286  44288  44290  44292  44294  44296
  44298  44300  44302  44304  44306  44308  44310  44312  44314  44316
  44318  44320  44322  44324  44326  44328  44330  44332  44334  44336
  44338  44340  44342  44344  44346  44348  44350  44352  44354  45462
  45470  45483  45490  45555  45562  46722  46732  47847  47889  47896
  48699  48837  48845  48846  49189  49196  50930  50937  51227  51235
  51469  51477  51705  51710  51714  52458  52462  52466  52489  52496
  53582  53589  54172  54174  54179  54182  54193  54196  54205  54364
  54371  54830  54837  54959  54960  54969  54970  55078  55085  55111
  55118  55237  55238  55242  55246  55265  55272  55392  55398  55418
  55427  55652  55654  55656  55660  55690  55699  55726  55729  55731
  55733  55735  55737  55739  55741  55743  55745  55747  55749  55751
  55753  55755  55757  55759  55761  55763  55765  55766  55768  55770
  55772  55774  55776  55777  55779  55781  55783  55785  55788  56244
  56256  56314  56316  56324  56325  56668  56670  56672  56674  56676
  56678  56680  56682  56684  56686  56688  56690  56692  56695  56697
  56723  56757  57001  57009  57917  57925  58073  59157  59175  60209
  60216  61377  61385  62261  62269  62413  65161  66029  66037  66045
  66276  66282  66290  66300  66314  66321  66418  66432  67210  67218
  67441  67459  67520  67538  67592  67599  67686  67689  67691  67696
  67704  67709  67711  67714  67733  67740  67830  67838  68147  68154
  68426  69191  69198  69236  69238  69243  69249  69254  70247  70254
  70288  70291  70297  70301  70892  70900  71498  71505  72445  72583
  72589  72590  72599  72602  72664  72672  72716  72724  72883  72891
  73398  73405  74715  74723  74727  74734  74750  74764  74846  74853
 103559 103565 108605 108613 108673]"	[]	107899.0	0.0	775.0	0.9928685794210207	1.0	0.0
16773	[       1       50       90 ... 10002106 10002148 10002201]	[      57      162      269 ... 10001992 10002112 10002208]										
16786	[      16       87      195 ... 10758439 10758536 10758639]	[      93      201      311 ... 10758445 10758542 10758644]	[     1      2      3 ... 101736 101737 101738]	[     0      1      2 ... 101626 101627 101628]	"[     0     54    208    913    957    959   2804   4983   4991   5024
   5034   5044   5052   5092   6592   6600  11959  11961  11963  11978
  11998  12002  12013  12019  12021  12023  12026  12032  12034  12494
  12911  12918  12923  13333  13340  22900  22913  23660  23668  27577
  27586  27611  27618  27624  27632  28721  28733  30026  30035  30222
  48094  48101  50694  50701  54224  54226  54229  54231  54234  54236
  54310  54317  56923  56931  56938  56942  74206  84190  84197  87158
  87164  87688  87695  87770  87777  88204  88215  88723  88730  90771
  90778  91169  91175  91221  91227  93566  93573  93580  93587  93641
  93648  97263  97273  98019  98022  98027  98030  98392  98395  98399
  98403  99982  99989 100011 100024 100032 100039 100281 100288 100289]"	[]	101629.0	0.0	110.0	0.9989188020326522	1.0	0.0
16795	[     11      58     118 ... 9567523 9567587 9567651]	[     21     129     239 ... 9566052 9566423 9567663]	[    0     2     4 ... 87658 87659 87662]	[    0     1     2 ... 86652 86653 86654]	[    1     3     5 ... 87675 87676 87677]	[ 2090 31123 85838 86655]	86652.0	4.0	1026.0	0.988298090741121	0.9999538404726735	4.615952732644018e-05
17052	[     35     150     264 ... 9779088 9779185 9779269]	[     43     157     272 ... 9778995 9779093 9779193]	[    0     1     2 ... 87998 87999 88000]	[    0     1     2 ... 87551 87552 87553]	"[  158   237  2938  2945  3095  3103  3463  3522  3525  3527  3529  3642
  3649  3866  3873  4043  4050  4309  5886  5890  5896  6192  6197  6823
  7577  7585  7622  7629  7845  7848  7850  8023  8029  8794  8800  8923
  8930  8972  8980  9971  9978 10009 10017 11502 11655 12352 12362 13116
 13127 13292 13315 14129 14137 15526 15534 15541 16316 16333 16479 16487
 16759 16767 17388 17394 17455 17599 17606 17754 17766 19055 19078 19080
 19082 19087 19089 19114 19126 19134 19142 19149 20377 20384 21338 21345
 21759 21765 21984 22224 22231 24919 24926 24937 24938 24945 24951 26609
 26615 28423 28430 28479 28486 28771 28778 28920 28927 28940 28949 28970
 28978 29738 29745 29820 29831 29989 30080 30084 30088 30094 30170 30177
 30203 30212 30220 30222 30232 30233 30489 30490 30497 30499 30608 30615
 30926 30933 30991 30998 31017 31024 31135 31145 31153 31155 31161 31168
 31232 31239 31277 31278 31286 31290 31426 31433 31514 31551 31558 32624
 32640 32646 32759 32766 32928 32935 33221 33228 33247 33254 33276 33284
 33289 33303 33308 33320 33323 33330 33342 33350 33597 33605 33701 33709
 34603 34609 35277 35279 35531 35537 35583 35589 35646 40292 40298 45471
 45478 46863 46869 47029 47042 47629 47637 49661 49667 50105 50112 50241
 50251 50301 50308 50312 51545 51548 51550 51552 51554 51556 51557 51600
 51616 51618 51652 51654 51660 51661 51675 51698 51703 51706 68102 68109
 69519 69521 69525 69529 69535 69735 69741 69767 69769 69775 69779 69783
 69793 69797 69800 69814 69866 69874 69982 69988 70097 70105 70682 70683
 70686 70716 70730 70731 70734 70827 70833 70836 70838 70851 70856 70962
 70964 71486 71488 71489 71490 71493 71530 71532 71533 71547 71553 71743
 71745 71747 71752 71754 71756 71758 71760 71815 71830 72333 72338 72573
 72575 72970 72979 73281 73287 73659 73844 74263 74268 74273 74789 74827
 74834 76570 76597 76969 76971 76978 77039 77050 77102 77113 77116 77208
 77215 77548 77737 77749 77756 77910 78107 78136 78142 78911 78919 78974
 78982 79233 79242 80249 81261 81268 81333 81340 81366 81374 82204 83012
 83019 83028 83037 83044 83054 83061 83106 83113 83121 83131 83142 83149
 83151 83162 83171 83188 83209 83395 83402 83461 83469 83484 83489 83490
 83495 83500 83501 83572 83580 83755 83756 83759 83763 83832 83840 83905
 83912 84911 84919 85886 85888 85894 85897 85912 85916 85920 85923 86103
 86117 86154 86157 86170 86173 86182 86217 86285 86289 86294 86301 86308
 86329 86334 86344 86352 86358 86367 86381 86384 86395 86415 86426 86452
 86455 86461 86463 86473 86476 86482 86486 86554 86561 86590 86597 86644
 86650 86662 86669 86713 86720 86744 86750 86800 86811 86818 86833 86841
 86848 86861 86917 86924 86926 86957 86963 87001 87007 87180 87187 87663
 87670 87882 87889 88001]"	[]	87554.0	0.0	448.0	0.9949092066089407	1.0	0.0
17453	[      1      93     182 ... 9533641 9533735 9533793]	[     98     187     276 ... 9533554 9533645 9533740]	[     1      2      3 ... 101169 101170 101171]	[     0      1      2 ... 100663 100664 100665]	"[     0   1102   1512   1519   1559   1568   1609   1616   1923   1931
   3733   5293   5300   5534   5542   6552   6560   6573   6582   7193
   7202   8827   8837  10094  10102  10288  10295  10461  10470  10647
  10654  10661  10669  10793  12056  12064  12261  12269  12437  12776
  12785  12927  12934  13168  13176  13225  13232  13352  14024  14035
  14058  14065  14176  14520  14755  14760  14763  14877  14886  14893
  14897  14902  14906  14907  14916  14920  14927  14930  14932  14947
  14951  14952  15124  15132  15172  15177  15181  15186  15188  15441
  15448  15528  15535  15668  15672  15676  15679  15682  15693  15702
  15864  15986  16063  16257  16265  17403  17425  18318  18320  18324
  18327  18328  18330  18334  18541  18543  18546  18551  18552  18559
  18561  18568  18570  18603  18608  18613  18849  18857  18905  20030
  20039  20047  20207  20216  21520  21529  21822  21859  21868  21888
  21896  22023  22152  22163  22307  22315  22959  22968  23000  23012
  23054  23061  23143  23150  23198  23206  23536  23544  24055  24058
  24061  24109  24111  24118  24121  24284  24287  24291  24296  24297
  24306  24350  24385  24393  25044  25053  25243  25251  25967  25975
  26802  27265  27272  27289  27296  27419  27427  27453  27460  27573
  27576  27581  27584  27587  27595  27845  27853  27916  27918  27922
  27933  27981  27998  32374  32833  35102  35643  35679  35683  35688
  35692  36292  36299  36647  36819  36827  37234  39001  39059  39066
  40706  40714  40970  40973  40978  40980  40990  41216  41220  41223
  41229  41234  41297  41305  41312  41320  41349  41357  41358  41437
  41445  41467  41471  41472  41476  41478  41480  41483  41485  41516
  41524  41778  41786  41800  41801  41805  41810  41812  41814  41819
  42143  42454  42461  42924  42931  43163  43170  43269  43276  43306
  43312  43373  43380  43917  43924  44244  44252  44524  44526  44532
  44534  44539  44547  44569  44577  44884  44891  44901  44910  45038
  45072  46469  46476  46498  46504  46540  46717  46725  47089  47096
  47145  47154  47982  48578  48586  49891  49898  49996  50005  50160
  50163  50168  51651  51660  51719  51727  52067  52074  52082  52155
  52163  52171  52185  52232  52364  52373  52407  52416  52538  52547
  52918  52922  52927  52987  52996  53420  53421  53425  53430  53461
  53471  53478  53485  53486  53680  55257  55271  55303  55311  55317
  55348  55352  55356  55423  55427  55428  55430  55434  55451  55459
  55464  55473  55588  55597  56073  56079  56084  56091  56093  56262
  56270  56424  56464  56473  56681  56688  56955  56964  56969  56977
  56993  57001  57009  57018  57058  57067  57161  57171  57176  57186
  57193  57306  57317  57499  57504  57509  57511  57593  57601  57639
  57845  57848  58966  58970  58982  59722  59794  59802  59998  60007
  60531  60538  60681  61052  61059  62216  62218  62221  62226  62505
  62621  62629  63075  63083  64545  64553  64662  64669  64841  64848
  65825  65832  65888  65895  66229  66236  66645  66652  66858  66866
  66874  66882  67034  67042  67071  67078  67252  67260  67325  67333
  67389  67390  67394  67397  67400  67409  67498  67506  67520  67522
  67527  67531  67533  67542  67600  67611  67630  67852  67859  67883
  67906  67914  68764  68766  68769  68774  68775  68802  68858  68866
  69096  69100  69104  69161  69178  69317  69319  69322  69327  69452
  69459  69460  69489  69509  70026  70600  70608  81471  93209  93218
  96872  96880 100232 100241 100492 100494 100499 100503 100627 100792
 100802 100810 100821 100823 100826 100831 100833 101095 101098 101103
 101172]"	[14705 23910 56796 60282]	100662.0	4.0	511.0	0.9949492453520208	0.9999602646375142	3.973536248584428e-05
18177	[      54      122      190 ... 10377129 11169423 11178268]	[      60      127      195 ... 10355623 10377138 11178277]	[     0      1      2 ... 116999 117001 117003]	[     0      1      2 ... 115980 115981 115982]	[    95     97    188 ... 116992 117000 117002]	[31685 31736 62117 62287 67014 67067 67823 67824 67826 67834 77810]	115972.0	11.0	1032.0	0.9911797887251718	0.9999051585146099	9.484148539010027e-05
18184	[      1      78     175 ... 9639200 9639344 9639488]	[     83     180     283 ... 9638980 9639052 9639181]	[     1      2      3 ... 102652 102653 102656]	[     0      1      2 ... 102236 102237 102238]	"[     0     21     32     69     81    116    254    259    262    344
    353    643    785    795    920    973    981   1015   1046   1053
   1061   1184   1186   1187   1190   1194   1198   1214   1293   1308
   1310   1311   1313   1315   1316   1320   1322   1331   1423   1424
   1429   1434   1441   1450   1546   1555   1570   1588   1605   1612
   1614   1616   1698   1700   1708   1744   1747   1752   2011   2026
   2053   2060   2357   2521   2530   3196   3203   3247   3256   3273
   3281   3556   3567   4136   4143   5153   5251   5259   5326   6381
   6537   6557   6561   6562   6565   9278   9365  12144  12696  13975
  14032  17564  19502  19994  21045  21052  21291  21299  21551  21559
  25185  25829  26190  26191  27143  27217  27225  27772  27781  28610
  28952  29254  29265  29274  29279  29284  29286  29290  29332  29338
  29339  29341  29344  29356  29367  29371  29379  29404  29407  29410
  29413  29417  29422  29424  29449  29455  29462  29575  29579  29601
  29604  29618  29622  29625  29645  29650  29653  29657  29661  29666
  29667  29668  29670  29684  29694  29714  29716  29718  29721  29723
  29729  29734  29736  29738  29741  31447  31456  31512  31514  31521
  31528  31532  31833  31835  31841  31855  31865  32742  32750  33211
  33214  33220  33848  35907  36979  36987  38123  38131  41786  41787
  42151  43244  43251  43533  43541  43600  43604  43606  43610  43727
  43728  44217  44224  44291  44354  44361  45339  45347  45436  45635
  45643  45652  45660  46380  46572  46854  46867  46875  47903  47912
  47960  47968  48306  48314  48458  48479  48591  48605  48607  48611
  48615  48616  48619  48623  48625  48628  48630  48632  48634  48636
  48638  48640  48642  48643  48645  48647  48649  48651  48652  48654
  48656  48658  48660  48662  48664  48665  48667  48668  48670  48671
  48672  48673  48675  48677  48679  48681  48682  48683  48685  48687
  48689  48691  48693  48695  48697  48698  48700  48702  48704  48706
  48708  48710  48712  48714  48716  48718  48720  48722  48724  48726
  48728  48730  48732  48734  48736  48738  48740  48742  48744  48746
  48748  48750  48752  48754  48756  48759  48761  48763  48765  48767
  48770  48772  48774  48776  48781  48789  48792  48794  48818  48856
  48879  48890  49478  49486  49495  49500  49504  49506  49916  53804
  53812  54930  54934  54938  56660  56668  57595  57603  58646  58796
  62684  62693  63301  63886  66176  66256  67606  67614  68893  69346
  69364  69438  69445  69479  69487  69526  69631  69647  70126  70134
  70665  70944  70946  71016  71068  71071  71072  71074  71077  71080
  71082  71115  71163  71178  71510  71519  71992  72055  72059  72061
  72068  72310  72520  73303  73681  73888  73891  73893  73895  73897
  73899  73901  79639  79641  79646  79649  79868  84076  84265  84278
  84445  84557  88219  88537  88545  88557  88565  94077  97685  97692
  99413  99415  99418  99420  99422  99425  99427  99434 102369 102650
 102654 102655 102657 102658 102659 102660 102661 102662 102663 102664
 102665 102666 102667 102668 102669 102670 102671]"	"[ 29281  29284  54604  79251 102239 102240 102241 102242 102243 102244
 102245 102246 102247 102248 102249 102250 102251 102252 102253 102254
 102255 102256 102257 102258 102259 102260 102261 102262 102263 102264
 102265 102266 102267 102268 102269 102270 102271 102272 102273 102274
 102275 102276 102277 102278 102279 102280 102281 102282 102283 102284
 102285 102286 102287 102288 102289 102290 102291 102292 102293 102294
 102295 102296 102297 102298 102299 102300 102301 102302 102303 102304
 102305 102306 102307 102308 102309 102310 102311 102312 102313 102314
 102315 102316 102317 102318 102319 102320 102321 102322 102323 102324
 102325 102326 102327 102328 102329]"	102235.0	95.0	437.0	0.9957437275985663	0.9990716309977524	0.0009283690022476302
19088	[      1      36     100 ... 9294409 9294493 9294532]	[   4277    4499    4588 ... 9294327 9294416 9294500]										
19090	[     11      75     139 ... 8861856 8861963 8862027]	[   4082    4179    4263 ... 8861753 8861862 8861970]	[   64    65    66 ... 81949 81950 81951]	[    0     1     2 ... 81543 81544 81545]	"[    0     1     2     3     4     5     6     7     8     9    10    11
    12    13    14    15    16    17    18    19    20    21    22    23
    24    25    26    27    28    29    30    31    32    33    34    35
    36    37    38    39    40    41    42    43    44    45    46    47
    48    49    50    51    52    53    54    55    56    57    58    59
    60    61    62    63    73    81   202   248   604   613   617   637
   673   682  1322  1324  1328  1333  1717  1724  1734  1741  2946  2955
  2987  2994  3050  3057  3167  3174  3202  3208  4365  4372  4454  4462
  5302  5309  5336  5345  5387  5394  6101  6108  6155  6159  6859  6867
  7157  7164  7244  7274  7277  7280  7282  7284  7287  7289  7298  7299
  7301  7308  7346  7360  7455  7457  7460  7466  7524  7531  7895  7902
  8427  8434  8478  8486 11117 11123 11194 11201 12910 12921 12930 12932
 12937 12940 12942 12944 12950 13667 13674 13685 13693 14797 14803 14862
 14871 14881 14897 14913 14917 14922 14923 15070 15077 15172 15178 15296
 15306 15604 15611 15614 15716 15723 16645 16653 16700 16707 16781 16796
 16810 16820 17348 17950 17956 19287 19292 19301 19626 19629 19633 19634
 19655 19663 19840 19847 20397 20426 20432 20434 20471 20622 20626 20630
 20633 20779 20786 21183 21277 21284 21474 21481 21556 21570 22704 22710
 22743 22750 22756 22762 24676 24688 26448 26454 26768 26775 26786 26793
 27084 27094 27142 27149 27257 27264 27878 27885 29415 29422 30487 30494
 30647 30649 30652 30655 30659 30662 30808 30817 30822 30827 30833 30872
 30880 30978 30986 31011 31018 31040 31118 31125 31977 31985 32594 32607
 32617 32624 34945 34952 35942 35950 36085 36092 36119 36125 36336 36342
 36821 36828 36980 36993 37046 37053 37527 37543 37556 37562 38212 38219
 38227 38234 39762 39769 39866 39873 41595 41601 41631 41637 41639 46015
 46025 46029 46032 46037 46336 46345 47608 47614 47666 47668 47670 47672
 47676 47677 47797 47804 49831 49838 50076 50087 50120 50157 50494 50500
 50596 50601 50605 50609 50611 50622 50633 50677 50681 50685 50689 50691
 50711 50720 51113 51118 51698 51699 51702 51703 51707 51709 51714 52465
 52475 52480 52482 52484 52486 52488 52494 52501 52534 52536 52543 52544
 61538 61542 61546 64344 64345 64349 64351 64359 64361 64364 64365 64368
 67759 67766 67775 67778 67779 67784 67797 67804 67900 67907 68577 68599
 68606 68608 68611 68612 68614 68617 68623 68630 68725 68732 69803 71335
 75330 75511 75518 76914 76921 77014 77017 77019 77025 81228 81952]"	[]	81546.0	0.0	407.0	0.9950337388503167	1.0	0.0
19093	[      1      62     126 ... 9246183 9246278 9246306]	[     66     131     195 ... 9246017 9246148 9246284]										
19140	[     21      85     149 ... 9220843 9220939 9220988]	[     26      90     154 ... 9220750 9220849 9220945]	[    0     1     2 ... 96988 96989 96990]	[    0     1     2 ... 96765 96766 96767]	"[   44    50    55    60   406   410   425   460   468   606   617  2861
  2870  2874  3191  3200  5678  5687  5717  5726  5729 12441 12981 13013
 15080 15309 15316 15349 15357 15359 15496 15504 16914 16921 18108 18118
 18181 18406 18414 18782 18969 18977 18983 20322 21766 21774 22051 22059
 22486 22488 22492 22496 22499 22721 22734 22749 23399 23407 24257 24267
 24445 24453 25236 25238 25240 25244 25246 25252 27012 27020 27783 27785
 27788 27790 27792 27794 27796 27798 27800 27802 27804 27808 27811 27834
 27836 27839 27841 27843 27855 30123 30131 30654 30655 30663 30665 30688
 30695 32025 32029 32038 32040 32121 32129 32132 32141 32235 32244 32619
 32627 32628 33239 33982 33991 34012 34023 34039 34041 34049 34054 34056
 34058 34060 34062 34064 34066 34068 34070 34072 34074 34076 34078 34080
 34082 34084 34086 34090 34099 35151 35162 39770 39777 41818 41825 43382
 43389 43490 43498 43507 44906 44913 45062 45072 47429 47436 47549 47562
 48908 49790 51452 51459 51460 51464 51469 51471 58219 58226 58912 58918
 59404 59408 59411 59417 59419 59550 59557 60175 61688 61695 63353 63361
 63419 63434 63499 63515 64037 64090 64097 64159 64166 65208 65215 65224
 65225 65228 65230 65232 65236 65237 65249 65251 65258 65265 75663 75674
 75704 75714 75719 75723 77646 77653 77940 77947 77949 79931 79939 85027
 85028 85032 85037 85381 85388 93868 96772 96991]"	[]	96768.0	0.0	224.0	0.9976905311778291	1.0	0.0
19830	[      1      49     113 ... 9723388 9723469 9723523]	[   2882    3022    3098 ... 9723311 9723394 9723476]	[    45     47     48 ... 111259 111260 111261]	[     0      1      2 ... 108932 108933 108934]	[     0      1      2 ... 111250 111251 111262]	[ 93287 104687]	108933.0	2.0	2330.0	0.9790586268570863	0.999981640427778	1.835957222196723e-05
